Ground Motion (g),Annual Frequency of Exceedence
 0.0025, 2.0262e-1
 0.0037, 1.7227e-1
 0.0056, 1.4110e-1
 0.0084, 1.1135e-1
 0.0126, 8.4923e-2
 0.0190, 6.1885e-2
 0.0284, 4.3513e-2
 0.0427, 2.9079e-2
 0.0640, 1.8687e-2
 0.0960, 1.1646e-2
 0.1440, 7.1631e-3
 0.2160, 4.3743e-3
 0.3240, 2.6040e-3
 0.4860, 1.4516e-3
 0.7290, 7.2161e-4
 1.0900, 3.0723e-4
 1.6400, 1.0452e-4
 2.4600, 2.7254e-5
 3.6900, 4.8748e-6
5.5400,4.4534e-7
