Ground Motion (g),Annual Frequency of Exceedence
 0.0025, 5.5635e-2
 0.0037, 3.9576e-2
 0.0056, 2.6889e-2
 0.0084, 1.7543e-2
 0.0126, 1.1199e-2
 0.0190, 6.9751e-3
 0.0284, 4.3075e-3
 0.0427, 2.5310e-3
 0.0640, 1.3837e-3
 0.0960, 6.8066e-4
 0.1440, 2.9679e-4
 0.2160, 1.1427e-4
 0.3240, 3.9043e-5
 0.4860, 1.1796e-5
 0.7290, 3.1340e-6
 1.0900, 7.2537e-7
 1.6400, 1.3752e-7
 2.4600, 1.5239e-8
 3.6900, 4.8897e-10
5.5400,
