Ground Motion (g),Annual Frequency of Exceedence
 0.0025, 2.1369e-1
 0.0037, 1.8238e-1
 0.0056, 1.4982e-1
 0.0084, 1.1846e-1
 0.0126, 9.0407e-2
 0.0190, 6.5864e-2
 0.0284, 4.6256e-2
 0.0427, 3.0831e-2
 0.0640, 1.9717e-2
 0.0960, 1.2195e-2
 0.1440, 7.4307e-3
 0.2160, 4.5011e-3
 0.3240, 2.6675e-3
 0.4860, 1.4861e-3
 0.7290, 7.4106e-4
 1.0900, 3.1775e-4
 1.6400, 1.0911e-4
 2.4600, 2.8645e-5
 3.6900, 5.1827e-6
5.5400,4.7694e-7
