Ground Motion (g),Annual Frequency of Exceedence
 0.0025, 1.8195e-1
 0.0037, 1.5400e-1
 0.0056, 1.2474e-1
 0.0084, 9.6683e-2
 0.0126, 7.1881e-2
 0.0190, 5.0517e-2
 0.0284, 3.3771e-2
 0.0427, 2.0933e-2
 0.0640, 1.2028e-2
 0.0960, 6.3485e-3
 0.1440, 3.0826e-3
 0.2160, 1.3824e-3
 0.3240, 5.7402e-4
 0.4860, 2.1848e-4
 0.7290, 7.3797e-5
 1.0900, 2.1228e-5
 1.6400, 4.6814e-6
 2.4600, 7.2982e-7
 3.6900, 6.7974e-8
5.5400,3.1651e-9
